   Name
   K2
   Freq, degree/hour
   30.08214
   Amp (cm).
   19.300    18.100    16.900    15.700    14.600    13.600    12.600    11.600
   10.600     9.800     9.100     8.500     8.100     7.700     7.400     7.100
    6.900    19.800    18.500    17.200    15.900    14.800    13.600    12.500
   11.400    10.400     9.600     8.900     8.300     7.900     7.600     7.300
    7.000     6.900    20.200    18.900    17.500    16.200    14.800    13.600
   12.400    11.200    10.200     9.300     8.600     8.000     7.600     7.300
    7.000     6.800     6.700    20.700    19.300    17.900    16.400    14.900
   13.500    12.200    10.900     9.700     8.800     8.100     7.600     7.200
    6.900     6.600     6.500     6.400    21.200    20.000    18.400    16.800
   15.200    13.500    12.000    10.400     9.100     8.200     7.600     7.100
    6.600     6.300     6.100     6.000     5.900   -99.000   -99.000    18.500
   17.400    15.400    13.300    11.500     9.800     8.500     7.600     6.900
    6.400     6.000     5.700     5.500     5.400     5.400   -99.000   -99.000
  -99.000   -99.000    14.600    12.800    10.800     9.100     7.800     6.700
    6.100     5.500     5.200     4.900     4.800     4.800     4.800   -99.000
  -99.000   -99.000   -99.000   -99.000    11.600     9.700     8.100     6.800
    5.900     5.100     4.600     4.300     4.000     3.900     4.000     4.100
  -99.000   -99.000   -99.000   -99.000   -99.000    10.100     8.300     7.000
    5.900     5.000     4.200     3.600     3.200     3.000     2.900     3.000
    3.200   -99.000   -99.000   -99.000   -99.000   -99.000     8.200     7.100
    6.000     5.000     4.100     3.300     2.600     2.100     1.900     1.900
    2.100     2.500   -99.000   -99.000   -99.000   -99.000   -99.000     7.300
    6.400     5.400     4.400     3.500     2.600     1.800     1.100     0.700
    0.800     1.300     1.900   -99.000   -99.000   -99.000   -99.000   -99.000
    7.000     6.200     5.300     4.300     3.400     2.600     1.800     1.100
    0.600     0.800     1.300     1.900   -99.000   -99.000   -99.000   -99.000
  -99.000     7.300     6.500     5.600     4.700     3.900     3.200     2.600
    2.100     2.000     2.000     2.300     2.700   -99.000   -99.000   -99.000
  -99.000     9.100     8.100     7.200     6.400     5.600     4.900     4.300
    3.800     3.500     3.400     3.400     3.600     3.800   -99.000   -99.000
   11.800    11.100     9.900     9.000     8.200     7.400     6.700     6.100
    5.600     5.200     5.000     4.900     4.900     5.000     5.100   -99.000
  -99.000    12.300    11.700    10.900    10.100     9.300     8.600     8.000
    7.500     7.100     6.800     6.600     6.500     6.400     6.500     6.500
  -99.000    14.100    13.300    12.500    11.800    11.200    10.500     9.900
    9.400     9.000     8.600     8.300     8.100     8.000     8.000     8.100
    8.100    15.500    14.800    14.000    13.400    12.800    12.300    11.800
   11.300    10.800    10.500    10.100     9.800     9.600     9.500     9.500
    9.700     9.700    15.800    15.100    14.500    13.900    13.600    13.300
   13.000    12.600    12.300    11.900    11.600    11.300    11.100    10.900
   10.900    11.100   -99.000    15.800    15.300    14.700    14.300    14.400
   14.600    14.400    14.100    13.700    13.400    13.100    12.800    12.500
   12.100    11.800    11.900    12.400   -99.000   -99.000   -99.000    20.100
   17.300    16.600    16.100    15.700    15.300    14.800    14.500    13.900
   13.800   -99.000   -99.000   -99.000   -99.000   -99.000   -99.000   -99.000
   21.100    20.300    19.100    18.200    17.400    16.900    16.100    15.800
  -99.000   -99.000   -99.000   -99.000   -99.000   -99.000   
   Phase (deg).
  199.710   202.910   205.710   208.420   210.690   212.920   214.950   216.850
  218.680   220.210   221.410   222.350   223.200   223.950   224.730   225.650
  226.730   205.490   208.490   211.150   213.690   215.770   217.840   219.830
  221.590   223.130   224.300   225.120   225.650   226.050   226.450   226.880
  227.350   227.940   210.970   213.510   216.140   218.550   220.810   222.890
  224.680   226.320   227.590   228.390   228.780   228.810   228.710   228.730
  228.730   228.660   228.660   215.710   217.860   220.430   223.060   225.630
  227.750   229.610   231.210   232.270   232.620   232.490   231.950   231.290
  230.710   230.160   229.520   228.840   219.100   220.870   223.930   227.010
  230.100   232.670   234.730   236.380   237.290   237.140   236.400   235.180
  233.840   232.520   231.230   229.890   228.490   -99.000   -99.000   227.500
  230.280   234.640   238.100   240.500   242.400   242.980   242.270   240.760
  238.760   236.530   234.230   231.940   229.660   227.470   -99.000   -99.000
  -99.000   -99.000   240.530   244.610   247.390   249.450   249.860   248.560
  245.970   242.870   239.360   235.800   232.160   228.590   225.320   -99.000
  -99.000   -99.000   -99.000   -99.000   253.410   256.460   258.310   258.440
  256.380   252.680   248.010   242.720   237.290   231.620   226.120   221.300
  -99.000   -99.000   -99.000   -99.000   -99.000   264.290   267.920   269.590
  269.330   266.670   262.080   255.650   247.650   238.760   229.600   221.020
  214.080   -99.000   -99.000   -99.000   -99.000   -99.000   280.650   282.510
  284.130   283.770   281.090   276.560   269.140   257.110   241.070   223.850
  209.750   200.600   -99.000   -99.000   -99.000   -99.000   -99.000   297.780
  299.220   301.500   302.640   301.580   300.210   296.430   284.820   250.040
  200.620   180.030   173.950   -99.000   -99.000   -99.000   -99.000   -99.000
  314.070   316.830   320.300   324.070   327.560   332.190   340.580   358.320
   41.640   100.980   124.460   135.240   -99.000   -99.000   -99.000   -99.000
  -99.000   329.950   334.040   338.630   344.000   351.170     0.050    12.620
   31.090    53.010    75.450    93.940   107.600   -99.000   -99.000   -99.000
  -99.000   347.790   346.830   349.200   354.050     0.250     7.910    17.170
   28.200    41.470    55.580    69.360    82.110    93.320   -99.000   -99.000
    3.320     1.120   357.860   359.250     1.530     5.950    12.040    19.260
   27.300    36.340    46.310    56.620    66.700    76.430    85.530   -99.000
  -99.000     6.590     6.490     6.280     8.280    11.050    14.970    20.330
   26.640    33.510    40.960    48.850    56.980    65.070    72.930    80.440
  -99.000    14.200    12.710    12.230    12.340    14.540    17.620    21.360
   26.150    31.650    37.470    43.640    50.130    56.860    63.560    70.090
   76.600    20.670    18.680    17.440    16.950    17.090    18.990    22.060
   25.680    30.060    34.920    40.010    45.240    50.680    56.280    61.850
   67.290    73.080    23.450    21.990    20.750    19.820    19.890    21.830
   24.970    28.560    32.620    36.970    41.490    46.050    50.680    55.430
   60.010    63.880   -99.000    24.870    24.130    22.840    21.730    21.280
   23.530    26.950    30.580    34.360    38.260    42.230    46.260    50.230
   54.610    58.680    62.140    63.300   -99.000   -99.000   -99.000    25.950
   24.230    25.840    28.890    32.230    35.650    39.100    42.560    46.110
   48.750   -99.000   -99.000   -99.000   -99.000   -99.000   -99.000   -99.000
   25.090    26.510    28.270    30.860    33.620    36.610    39.590    41.880
  -99.000   -99.000   -99.000   -99.000   -99.000   -99.000   
